	Silence-BoseOn		
Frequency (Hz)	Level (dB)

11.139739	-87.80
11.301211	-87.58
11.465025	-87.36
11.631213	-87.12
11.799810	-86.85
11.970850	-86.59
12.144370	-86.31
12.320405	-86.04
12.498992	-85.75
12.680168	-85.44
12.863969	-85.14
13.050435	-84.86
13.239604	-84.57
13.431515	-84.27
13.626208	-84.01
13.823722	-83.77
14.024100	-83.54
14.227382	-83.38
14.433611	-83.27
14.642829	-83.22
14.855080	-83.24
15.070408	-83.34
15.288856	-83.51
15.510471	-83.79
15.735299	-84.10
15.963385	-84.51
16.194778	-84.96
16.429525	-85.42
16.667674	-85.88
16.909275	-86.12
17.154379	-86.06
17.403035	-85.50
17.655296	-84.56
17.911213	-83.44
18.170840	-82.28
18.434230	-81.20
18.701438	-80.36
18.972519	-79.71
19.247530	-79.27
19.526527	-79.00
19.809568	-78.88
20.096712	-78.88
20.388018	-78.97
20.683546	-79.14
20.983358	-79.36
21.287517	-79.61
21.596084	-79.87
21.909123	-80.12
22.226701	-80.30
22.548881	-80.38
22.875732	-80.36
23.207320	-80.23
23.543715	-80.00
23.884986	-79.70
24.231204	-79.43
24.582441	-79.26
24.938768	-79.31
25.300261	-79.62
25.666993	-80.30
26.039042	-81.20
26.416483	-82.31
26.799396	-83.30
27.187858	-84.00
27.581952	-84.36
27.981758	-84.46
28.387360	-84.41
28.798840	-84.27
29.216286	-84.04
29.639782	-83.78
30.069416	-83.47
30.505279	-83.13
30.947459	-82.74
31.396049	-82.33
31.851141	-82.00
32.312830	-81.81
32.781212	-81.83
33.256382	-82.09
33.738440	-82.63
34.227486	-83.57
34.723620	-84.87
35.226947	-86.39
35.737568	-87.62
36.255592	-88.27
36.781124	-88.73
37.314274	-89.45
37.855152	-90.40
38.403871	-91.17
38.960543	-91.22
39.525284	-90.38
40.098211	-89.05
40.679443	-87.78
41.269100	-86.91
41.867304	-86.49
42.474180	-86.63
43.089852	-87.45
43.714448	-88.64
44.348098	-88.96
44.990933	-87.77
45.643086	-86.13
46.304692	-84.72
46.975888	-83.84
47.656813	-83.13
48.347609	-81.49
49.048418	-79.12
49.759385	-77.18
50.480657	-75.99
51.212385	-75.62
51.954719	-76.23
52.707813	-77.72
53.471824	-79.54
54.246909	-81.42
55.033230	-83.72
55.830948	-86.56
56.640229	-89.67
57.461241	-92.26
58.294153	-93.76
59.139139	-94.08
59.996373	-94.03
60.866033	-94.20
61.748299	-94.97
62.643354	-96.49
63.551382	-97.80
64.472573	-98.38
65.407116	-99.81
66.355206	-101.79
67.317038	-102.37
68.292813	-101.95
69.282731	-101.78
70.286999	-101.94
71.305824	-101.29
72.339416	-99.57
73.387991	-98.71
74.451765	-100.11
75.530959	-102.08
76.625796	-100.07
77.736503	-97.43
78.863310	-96.94
80.006450	-98.07
81.166160	-100.39
82.342680	-103.35
83.536255	-106.48
84.747130	-108.43
85.975557	-108.09
87.221791	-107.83
88.486089	-107.28
89.768713	-106.76
91.069929	-107.70
92.390007	-108.09
93.729219	-108.07
95.087844	-108.37
96.466162	-108.56
97.864459	-108.06
99.283025	-107.09
100.722153	-106.69
102.182141	-108.17
103.663293	-110.96
105.165914	-110.93
106.690316	-108.58
108.236814	-107.20
109.805729	-107.23
111.397386	-107.25
113.012114	-108.64
114.650248	-110.30
116.312128	-108.33
117.998096	-105.27
119.708503	-102.76
121.443703	-103.42
123.204054	-105.67
124.989923	-106.82
126.801678	-108.87
128.639694	-108.81
130.504354	-110.25
132.396041	-113.37
134.315150	-111.56
136.262076	-112.48
138.237223	-114.16
140.241000	-113.89
142.273823	-116.10
144.336111	-119.93
146.428293	-119.76
148.550802	-117.35
150.704076	-117.77
152.888563	-120.84
155.104715	-122.08
157.352990	-125.21
159.633854	-123.20
161.947780	-124.28
164.295247	-120.50
166.676741	-117.23
169.092755	-118.32
171.543790	-118.08
174.030353	-116.99
176.552959	-116.55
179.112131	-115.17
181.708398	-114.45
184.342299	-113.54
187.014379	-113.92
189.725192	-116.58
192.475298	-121.09
195.265267	-121.88
198.095678	-121.70
200.967116	-122.05
203.880176	-124.54
206.835462	-120.36
209.833585	-121.50
212.875166	-122.50
215.960836	-122.91
219.091233	-123.23
222.267006	-119.97
225.488813	-120.55
228.757320	-123.99
232.073205	-126.38
235.437154	-124.61
238.849865	-120.58
242.312043	-120.23
245.824407	-122.52
249.387683	-125.80
253.002609	-124.24
256.669935	-124.83
260.390419	-123.73
264.164832	-125.86
267.993956	-125.31
271.878584	-126.17
275.819521	-128.24
279.817582	-121.61
283.873596	-124.18
287.988403	-122.65
292.162855	-123.57
296.397817	-126.31
300.694165	-122.47
305.052789	-119.91
309.474593	-122.52
313.960491	-120.87
318.511414	-118.38
323.128303	-117.93
327.812115	-118.70
332.563820	-118.94
337.384402	-120.73
342.274859	-117.53
347.236204	-118.59
352.269465	-118.66
357.375684	-118.61
362.555919	-112.42
367.811243	-118.93
373.142743	-118.39
378.551525	-122.93
384.038708	-123.24
389.605429	-118.57
395.252841	-124.35
400.982113	-125.01
406.794432	-126.42
412.691002	-121.69
418.673044	-123.13
424.741797	-121.67
430.898518	-119.93
437.144481	-117.93
443.480981	-117.91
449.909331	-118.38
456.430860	-120.83
463.046920	-120.57
469.758882	-121.01
476.568134	-118.33
483.476089	-118.29
490.484175	-118.75
497.593845	-117.46
504.806572	-117.00
512.123848	-113.94
519.547190	-113.22
527.078134	-110.24
534.718242	-112.78
542.469094	-114.12
550.332296	-115.93
558.309477	-112.45
566.402289	-112.95
574.612408	-111.49
582.941535	-116.35
591.391394	-113.55
599.963735	-108.03
608.660334	-108.36
617.482992	-112.03
626.433537	-110.45
635.513821	-109.65
644.725726	-111.81
654.071160	-111.98
663.552057	-108.72
673.170382	-112.68
682.928127	-115.35
692.827312	-118.86
702.869989	-115.00
713.058235	-114.74
723.394163	-114.74
733.879912	-113.30
744.517654	-113.88
755.309592	-115.57
766.257962	-116.05
777.365030	-115.63
788.633098	-117.03
800.064499	-112.24
811.661600	-112.95
823.426804	-113.77
835.362547	-119.60
847.471301	-118.87
859.755574	-116.53
872.217910	-119.79
884.860890	-119.14
897.687132	-117.52
910.699294	-118.85
923.900070	-117.36
937.292194	-114.32
950.878439	-112.34
964.661620	-115.35
978.644591	-116.94
992.830248	-118.30
1007.221529	-114.14
1021.821414	-111.91
1036.632928	-107.58
1051.659138	-108.50
1066.903156	-108.85
1082.368140	-107.60
1098.057291	-110.68
1113.973860	-112.57
1130.121143	-111.36
1146.502484	-109.32
1163.121276	-108.52
1179.980961	-110.40
1197.085030	-107.19
1214.437027	-107.26
1232.040544	-109.76
1249.899229	-109.02
1268.016778	-110.20
1286.396945	-112.72
1305.043536	-110.04
1323.960414	-112.68
1343.151496	-112.57
1362.620756	-112.07
1382.372227	-113.68
1402.410000	-112.96
1422.738225	-112.47
1443.361112	-114.57
1464.282931	-117.87
1485.508017	-121.33
1507.040765	-119.89
1528.885634	-119.97
1551.047150	-121.07
1573.529901	-121.19
1596.338544	-121.98
1619.477804	-121.45
1642.952471	-121.61
1666.767409	-124.51
1690.927550	-121.89
1715.437896	-119.22
1740.303526	-118.53
1765.529587	-118.50
1791.121306	-119.69
1817.083982	-121.39
1843.422992	-124.02
1870.143792	-124.56
1897.251916	-123.07
1924.752977	-120.62
1952.652672	-123.03
1980.956779	-125.47
2009.671159	-123.13
2038.801761	-119.15
2068.354617	-118.68
2098.335847	-117.94
2128.751662	-116.85
2159.608360	-119.91
2190.912333	-117.38
2222.670063	-116.01
2254.888128	-113.49
2287.573200	-112.40
2320.732050	-111.15
2354.371544	-111.70
2388.498649	-110.27
2423.120434	-111.21
2458.244069	-113.39
2493.876828	-116.83
2530.026092	-115.63
2566.699346	-115.79
2603.904187	-116.15
2641.648320	-116.50
2679.939562	-116.05
2718.785844	-114.58
2758.195211	-116.79
2798.175824	-119.66
2838.735965	-119.51
2879.884033	-120.17
2921.628551	-118.90
2963.978165	-118.96
3006.941645	-118.82
3050.527890	-119.16
3094.745927	-120.33
3139.604913	-119.13
3185.114139	-119.80
3231.283032	-120.55
3278.121151	-118.82
3325.638200	-120.71
3373.844017	-120.83
3422.748588	-120.73
3472.362041	-120.67
3522.694651	-120.74
3573.756843	-120.83
3625.559192	-121.13
3678.112427	-119.01
3731.427432	-120.24
3785.515249	-119.56
3840.387080	-118.47
3896.054290	-118.78
3952.528408	-118.67
4009.821129	-117.97
4067.944321	-117.40
4126.910020	-118.68
4186.730440	-117.87
4247.417969	-118.22
4308.985176	-118.07
4371.444813	-117.63
4434.809815	-117.56
4499.093306	-118.85
4564.308599	-118.82
4630.469202	-120.15
4697.588817	-120.30
4765.681344	-120.54
4834.760887	-120.28
4904.841752	-121.06
4975.938453	-122.54
5048.065717	-122.74
5121.238480	-123.47
5195.471897	-123.23
5270.781343	-124.16
5347.182415	-123.58
5424.690937	-123.23
5503.322961	-123.39
5583.094772	-124.08
5664.022893	-123.10
5746.124083	-120.76
5829.415347	-121.61
5913.913936	-121.53
5999.637349	-120.83
6086.603340	-121.65
6174.829922	-120.50
6264.335367	-120.58
6355.138211	-120.81
6447.257262	-120.89
6540.711597	-120.91
6635.520573	-120.60
6731.703824	-121.03
6829.281272	-120.85
6928.273125	-120.68
7028.699885	-120.70
7130.582353	-119.49
7233.941627	-120.40
7338.799116	-119.77
7445.176537	-119.46
7553.095920	-119.29
7662.579617	-119.54
7773.650302	-118.57
7886.330981	-119.06
8000.644989	-119.91
8116.616003	-119.16
8234.268041	-119.49
8353.625470	-119.91
8474.713009	-119.48
8597.555737	-119.98
8722.179097	-119.27
8848.608897	-120.05
8976.871324	-120.29
9106.992942	-119.74
9239.000700	-120.14
9372.921937	-119.74
9508.784391	-120.19
9646.616199	-120.32
9786.445908	-120.77
9928.302478	-121.19
10072.215288	-121.58
10218.214144	-122.10
10366.329284	-121.39
10516.591384	-121.76
10669.031565	-121.74
10823.681397	-121.40
10980.572911	-122.36
11139.738600	-121.94
11301.211429	-122.50
11465.024840	-122.17
11631.212760	-121.95
11799.809609	-122.39
11970.850305	-121.78
12144.370271	-121.53
12320.405445	-121.54
12498.992285	-121.14
12680.167779	-120.74
12863.969449	-120.56
13050.435363	-121.09
13239.604139	-121.68
13431.514956	-122.22
13626.207560	-122.69
13823.722274	-122.74
14024.100004	-123.19
14227.382252	-122.35
14433.611118	-122.66
14642.829314	-122.55
14855.080172	-122.75
15070.407650	-122.84
15288.856344	-122.88
15510.471498	-122.68
15735.299010	-123.18
15963.385443	-123.26
16194.778036	-122.43
16429.524714	-122.65
16667.674093	-122.57
16909.275497	-122.52
17154.378963	-122.64
17403.035256	-122.90
17655.295873	-122.31
17911.213060	-122.50
18170.839820	-122.50
18434.229924	-122.13
18701.437922	-122.62
18972.519156	-121.81
19247.529769	-121.62
19526.526718	-121.93
19809.567786	-121.96
20096.711592	-122.02
20388.017608	-121.84
20683.546166	-121.67
20983.358471	-121.62
21287.516618	-122.19
21596.083601	-121.66
21909.123326	-121.90
22226.700627	-121.55