	Bang-Janick		
Frequency (Hz)	Level (dB)

11.139739	-75.77
11.301211	-75.62
11.465025	-75.39
11.631213	-75.07
11.799810	-74.60
11.970850	-74.05
12.144370	-73.45
12.320405	-72.78
12.498992	-72.08
12.680168	-71.25
12.863969	-70.45
13.050435	-69.68
13.239604	-68.90
13.431515	-68.05
13.626208	-67.36
13.823722	-66.72
14.024100	-66.10
14.227382	-65.65
14.433611	-65.27
14.642829	-65.03
14.855080	-64.91
15.070408	-64.92
15.288856	-65.04
15.510471	-65.30
15.735299	-65.63
15.963385	-66.07
16.194778	-66.58
16.429525	-67.12
16.667674	-67.77
16.909275	-68.38
17.154379	-69.01
17.403035	-69.66
17.655296	-70.16
17.911213	-70.53
18.170840	-70.72
18.434230	-70.72
18.701438	-70.57
18.972519	-70.36
19.247530	-70.14
19.526527	-69.94
19.809568	-69.77
20.096712	-69.64
20.388018	-69.55
20.683546	-69.51
20.983358	-69.51
21.287517	-69.57
21.596084	-69.69
21.909123	-69.85
22.226701	-70.07
22.548881	-70.32
22.875732	-70.60
23.207320	-70.83
23.543715	-70.96
23.884986	-70.97
24.231204	-70.85
24.582441	-70.64
24.938768	-70.38
25.300261	-70.14
25.666993	-69.92
26.039042	-69.77
26.416483	-69.70
26.799396	-69.73
27.187858	-69.80
27.581952	-69.79
27.981758	-69.57
28.387360	-69.16
28.798840	-68.72
29.216286	-68.43
29.639782	-68.42
30.069416	-68.70
30.505279	-69.13
30.947459	-69.49
31.396049	-69.55
31.851141	-69.14
32.312830	-68.24
32.781212	-67.06
33.256382	-65.82
33.738440	-64.67
34.227486	-63.59
34.723620	-62.55
35.226947	-61.44
35.737568	-60.33
36.255592	-59.38
36.781124	-58.71
37.314274	-58.33
37.855152	-58.29
38.403871	-58.61
38.960543	-59.31
39.525284	-60.17
40.098211	-60.78
40.679443	-60.94
41.269100	-60.77
41.867304	-60.51
42.474180	-60.39
43.089852	-60.58
43.714448	-61.02
44.348098	-61.48
44.990933	-61.82
45.643086	-62.07
46.304692	-62.31
46.975888	-62.62
47.656813	-62.83
48.347609	-62.07
49.048418	-60.19
49.759385	-58.21
50.480657	-56.69
51.212385	-55.91
51.954719	-56.04
52.707813	-56.63
53.471824	-56.86
54.246909	-56.82
55.033230	-57.01
55.830948	-56.84
56.640229	-55.85
57.461241	-54.65
58.294153	-53.68
59.139139	-53.06
59.996373	-52.70
60.866033	-52.46
61.748299	-52.43
62.643354	-52.63
63.551382	-52.47
64.472573	-50.32
65.407116	-47.19
66.355206	-45.21
67.317038	-44.61
68.292813	-45.47
69.282731	-47.46
70.286999	-49.46
71.305824	-50.28
72.339416	-50.45
73.387991	-49.65
74.451765	-46.86
75.530959	-43.99
76.625796	-42.58
77.736503	-42.82
78.863310	-44.24
80.006450	-44.19
81.166160	-43.02
82.342680	-42.42
83.536255	-42.53
84.747130	-43.62
85.975557	-44.02
87.221791	-42.13
88.486089	-39.31
89.768713	-37.71
91.069929	-37.67
92.390007	-37.73
93.729219	-37.33
95.087844	-38.35
96.466162	-40.72
97.864459	-42.20
99.283025	-42.85
100.722153	-45.02
102.182141	-48.78
103.663293	-50.11
105.165914	-50.01
106.690316	-49.97
108.236814	-49.95
109.805729	-49.39
111.397386	-49.86
113.012114	-52.82
114.650248	-55.30
116.312128	-51.47
117.998096	-47.04
119.708503	-42.77
121.443703	-40.97
123.204054	-38.39
124.989923	-33.93
126.801678	-32.80
128.639694	-33.29
130.504354	-32.27
132.396041	-32.80
134.315150	-35.52
136.262076	-37.31
138.237223	-36.44
140.241000	-33.53
142.273823	-33.37
144.336111	-32.73
146.428293	-32.43
148.550802	-31.17
150.704076	-31.13
152.888563	-33.41
155.104715	-37.33
157.352990	-40.15
159.633854	-38.41
161.947780	-39.97
164.295247	-43.86
166.676741	-37.84
169.092755	-36.78
171.543790	-38.15
174.030353	-36.70
176.552959	-40.34
179.112131	-46.37
181.708398	-52.03
184.342299	-55.61
187.014379	-57.86
189.725192	-58.68
192.475298	-57.27
195.265267	-50.63
198.095678	-46.73
200.967116	-48.13
203.880176	-50.77
206.835462	-49.03
209.833585	-46.64
212.875166	-45.60
215.960836	-49.66
219.091233	-43.17
222.267006	-43.66
225.488813	-48.40
228.757320	-46.82
232.073205	-48.80
235.437154	-50.74
238.849865	-44.91
242.312043	-45.23
245.824407	-47.74
249.387683	-52.86
253.002609	-56.99
256.669935	-56.39
260.390419	-54.42
264.164832	-55.35
267.993956	-62.70
271.878584	-64.75
275.819521	-61.35
279.817582	-58.56
283.873596	-55.65
287.988403	-53.19
292.162855	-52.70
296.397817	-53.15
300.694165	-50.82
305.052789	-47.33
309.474593	-49.08
313.960491	-51.10
318.511414	-47.21
323.128303	-48.33
327.812115	-47.02
332.563820	-50.30
337.384402	-54.86
342.274859	-49.03
347.236204	-50.95
352.269465	-51.94
357.375684	-48.50
362.555919	-46.30
367.811243	-48.48
373.142743	-47.94
378.551525	-51.05
384.038708	-48.51
389.605429	-43.66
395.252841	-50.08
400.982113	-51.19
406.794432	-52.43
412.691002	-49.54
418.673044	-46.46
424.741797	-46.64
430.898518	-47.15
437.144481	-43.35
443.480981	-43.80
449.909331	-47.34
456.430860	-46.63
463.046920	-47.46
469.758882	-48.95
476.568134	-48.82
483.476089	-52.95
490.484175	-53.05
497.593845	-54.27
504.806572	-57.91
512.123848	-64.43
519.547190	-75.15
527.078134	-63.11
534.718242	-58.67
542.469094	-57.55
550.332296	-58.60
558.309477	-54.03
566.402289	-53.02
574.612408	-53.57
582.941535	-62.14
591.391394	-61.96
599.963735	-54.47
608.660334	-55.73
617.482992	-58.03
626.433537	-59.16
635.513821	-60.48
644.725726	-64.75
654.071160	-66.09
663.552057	-67.31
673.170382	-68.39
682.928127	-66.19
692.827312	-68.90
702.869989	-69.14
713.058235	-71.39
723.394163	-72.54
733.879912	-70.19
744.517654	-72.33
755.309592	-76.35
766.257962	-77.50
777.365030	-77.61
788.633098	-73.83
800.064499	-68.60
811.661600	-69.46
823.426804	-69.92
835.362547	-75.46
847.471301	-72.70
859.755574	-72.52
872.217910	-71.56
884.860890	-70.78
897.687132	-67.15
910.699294	-68.70
923.900070	-71.52
937.292194	-70.82
950.878439	-70.06
964.661620	-75.72
978.644591	-75.48
992.830248	-76.15
1007.221529	-70.94
1021.821414	-70.02
1036.632928	-64.43
1051.659138	-67.61
1066.903156	-68.24
1082.368140	-67.04
1098.057291	-68.17
1113.973860	-69.70
1130.121143	-69.13
1146.502484	-68.18
1163.121276	-69.84
1179.980961	-72.29
1197.085030	-68.77
1214.437027	-70.67
1232.040544	-71.87
1249.899229	-69.63
1268.016778	-72.11
1286.396945	-74.04
1305.043536	-74.69
1323.960414	-78.44
1343.151496	-80.92
1362.620756	-85.11
1382.372227	-87.03
1402.410000	-83.42
1422.738225	-78.25
1443.361112	-74.22
1464.282931	-74.09
1485.508017	-77.27
1507.040765	-76.47
1528.885634	-76.02
1551.047150	-77.82
1573.529901	-78.23
1596.338544	-76.64
1619.477804	-72.09
1642.952471	-77.48
1666.767409	-73.74
1690.927550	-75.73
1715.437896	-76.34
1740.303526	-78.21
1765.529587	-76.79
1791.121306	-78.67
1817.083982	-81.25
1843.422992	-85.72
1870.143792	-84.41
1897.251916	-83.65
1924.752977	-80.79
1952.652672	-82.59
1980.956779	-82.81
2009.671159	-86.88
2038.801761	-93.57
2068.354617	-91.74
2098.335847	-86.48
2128.751662	-85.88
2159.608360	-88.50
2190.912333	-90.19
2222.670063	-92.18
2254.888128	-92.30
2287.573200	-90.62
2320.732050	-86.80
2354.371544	-88.76
2388.498649	-87.13
2423.120434	-90.46
2458.244069	-93.89
2493.876828	-99.62
2530.026092	-98.95
2566.699346	-101.73
2603.904187	-106.20
2641.648320	-102.12
2679.939562	-101.60
2718.785844	-107.57
2758.195211	-95.60
2798.175824	-95.11
2838.735965	-95.20
2879.884033	-93.94
2921.628551	-87.74
2963.978165	-88.31
3006.941645	-89.03
3050.527890	-89.68
3094.745927	-91.88
3139.604913	-98.25
3185.114139	-96.12
3231.283032	-90.21
3278.121151	-95.08
3325.638200	-94.77
3373.844017	-92.97
3422.748588	-96.31
3472.362041	-93.07
3522.694651	-92.85
3573.756843	-98.83
3625.559192	-100.57
3678.112427	-101.97
3731.427432	-102.04
3785.515249	-101.94
3840.387080	-106.84
3896.054290	-100.66
3952.528408	-99.19
4009.821129	-102.03
4067.944321	-102.35
4126.910020	-98.75
4186.730440	-96.45
4247.417969	-100.52
4308.985176	-100.51
4371.444813	-99.59
4434.809815	-99.72
4499.093306	-102.75
4564.308599	-102.70
4630.469202	-105.06
4697.588817	-100.47
4765.681344	-101.01
4834.760887	-101.60
4904.841752	-101.14
4975.938453	-101.91
5048.065717	-101.38
5121.238480	-103.95
5195.471897	-97.65
5270.781343	-100.70
5347.182415	-110.19
5424.690937	-110.78
5503.322961	-111.10
5583.094772	-108.59
5664.022893	-110.89
5746.124083	-116.91
5829.415347	-110.67
5913.913936	-112.90
5999.637349	-117.40
6086.603340	-111.81
6174.829922	-113.68
6264.335367	-118.85
6355.138211	-118.42
6447.257262	-112.52
6540.711597	-111.03
6635.520573	-111.21
6731.703824	-108.74
6829.281272	-110.85
6928.273125	-115.31
7028.699885	-112.14
7130.582353	-111.41
7233.941627	-112.41
7338.799116	-114.19
7445.176537	-114.83
7553.095920	-118.24
7662.579617	-115.96
7773.650302	-116.63
7886.330981	-114.32
8000.644989	-112.65
8116.616003	-115.04
8234.268041	-117.14
8353.625470	-114.62
8474.713009	-115.64
8597.555737	-112.99
8722.179097	-111.64
8848.608897	-110.20
8976.871324	-118.84
9106.992942	-120.21
9239.000700	-118.15
9372.921937	-120.43
9508.784391	-122.03
9646.616199	-122.58
9786.445908	-122.60
9928.302478	-122.48
10072.215288	-122.38
10218.214144	-123.33
10366.329284	-122.84
10516.591384	-122.30
10669.031565	-122.49
10823.681397	-122.55
10980.572911	-122.85
11139.738600	-123.06
11301.211429	-122.61
11465.024840	-122.22
11631.212760	-122.85
11799.809609	-122.67
11970.850305	-122.74
12144.370271	-122.33
12320.405445	-122.90
12498.992285	-122.80
12680.167779	-122.85
12863.969449	-122.71
13050.435363	-122.87
13239.604139	-123.06
13431.514956	-122.74
13626.207560	-122.63
13823.722274	-123.07
14024.100004	-122.97
14227.382252	-123.15
14433.611118	-122.62
14642.829314	-123.10
14855.080172	-122.53
15070.407650	-122.21
15288.856344	-122.42
15510.471498	-122.13
15735.299010	-122.62
15963.385443	-122.37
16194.778036	-122.35
16429.524714	-122.11
16667.674093	-122.82
16909.275497	-122.65
17154.378963	-122.09
17403.035256	-122.19
17655.295873	-121.94
17911.213060	-122.26
18170.839820	-121.86
18434.229924	-122.29
18701.437922	-121.78
18972.519156	-122.12
19247.529769	-122.30
19526.526718	-121.85
19809.567786	-121.74
20096.711592	-121.96
20388.017608	-121.37
20683.546166	-121.56
20983.358471	-121.49
21287.516618	-121.17
21596.083601	-121.58
21909.123326	-121.32
22226.700627	-121.33