	Spec-126		
Frequency (Hz)	Level (dB)

11.139739	-86.37
11.301211	-85.91
11.465025	-85.51
11.631213	-85.16
11.799810	-84.84
11.970850	-84.60
12.144370	-84.42
12.320405	-84.27
12.498992	-84.15
12.680168	-84.05
12.863969	-83.96
13.050435	-83.87
13.239604	-83.77
13.431515	-83.65
13.626208	-83.52
13.823722	-83.38
14.024100	-83.24
14.227382	-83.11
14.433611	-83.00
14.642829	-82.93
14.855080	-82.89
15.070408	-82.89
15.288856	-82.94
15.510471	-83.05
15.735299	-83.20
15.963385	-83.43
16.194778	-83.75
16.429525	-84.13
16.667674	-84.68
16.909275	-85.27
17.154379	-85.97
17.403035	-86.81
17.655296	-87.57
17.911213	-88.26
18.170840	-88.78
18.434230	-89.02
18.701438	-88.97
18.972519	-88.73
19.247530	-88.34
19.526527	-87.89
19.809568	-87.41
20.096712	-86.96
20.388018	-86.55
20.683546	-86.22
20.983358	-85.94
21.287517	-85.68
21.596084	-85.39
21.909123	-85.02
22.226701	-84.55
22.548881	-84.00
22.875732	-83.38
23.207320	-82.76
23.543715	-82.16
23.884986	-81.57
24.231204	-81.04
24.582441	-80.59
24.938768	-80.20
25.300261	-79.91
25.666993	-79.65
26.039042	-79.42
26.416483	-79.13
26.799396	-78.78
27.187858	-78.35
27.581952	-77.78
27.981758	-77.13
28.387360	-76.45
28.798840	-75.90
29.216286	-75.61
29.639782	-75.73
30.069416	-76.26
30.505279	-77.20
30.947459	-78.47
31.396049	-80.01
31.851141	-81.84
32.312830	-83.99
32.781212	-86.21
33.256382	-87.93
33.738440	-88.48
34.227486	-87.89
34.723620	-86.76
35.226947	-85.54
35.737568	-84.44
36.255592	-83.50
36.781124	-82.72
37.314274	-82.10
37.855152	-81.72
38.403871	-81.62
38.960543	-81.81
39.525284	-82.22
40.098211	-82.70
40.679443	-82.97
41.269100	-82.60
41.867304	-81.64
42.474180	-80.55
43.089852	-79.66
43.714448	-79.14
44.348098	-79.12
44.990933	-79.41
45.643086	-79.34
46.304692	-78.61
46.975888	-77.72
47.656813	-76.99
48.347609	-76.46
49.048418	-76.12
49.759385	-76.10
50.480657	-76.60
51.212385	-77.76
51.954719	-79.70
52.707813	-82.51
53.471824	-85.08
54.246909	-86.19
55.033230	-86.42
55.830948	-83.50
56.640229	-79.33
57.461241	-75.95
58.294153	-73.82
59.139139	-73.26
59.996373	-74.08
60.866033	-76.16
61.748299	-79.71
62.643354	-84.30
63.551382	-89.25
64.472573	-93.14
65.407116	-93.80
66.355206	-93.75
67.317038	-94.60
68.292813	-95.71
69.282731	-95.32
70.286999	-93.98
71.305824	-93.43
72.339416	-92.30
73.387991	-90.71
74.451765	-89.98
75.530959	-90.87
76.625796	-92.49
77.736503	-93.16
78.863310	-94.38
80.006450	-95.15
81.166160	-95.17
82.342680	-95.28
83.536255	-95.68
84.747130	-97.72
85.975557	-100.90
87.221791	-102.50
88.486089	-102.14
89.768713	-99.96
91.069929	-98.12
92.390007	-99.47
93.729219	-102.80
95.087844	-102.60
96.466162	-102.33
97.864459	-105.11
99.283025	-106.64
100.722153	-106.03
102.182141	-105.73
103.663293	-106.45
105.165914	-106.32
106.690316	-104.06
108.236814	-104.40
109.805729	-107.80
111.397386	-106.58
113.012114	-102.81
114.650248	-101.64
116.312128	-97.74
117.998096	-93.07
119.708503	-91.75
121.443703	-92.58
123.204054	-95.83
124.989923	-95.10
126.801678	-96.45
128.639694	-100.26
130.504354	-101.69
132.396041	-101.87
134.315150	-101.33
136.262076	-102.20
138.237223	-104.06
140.241000	-112.47
142.273823	-111.57
144.336111	-108.58
146.428293	-107.18
148.550802	-105.05
150.704076	-108.30
152.888563	-107.92
155.104715	-108.56
157.352990	-111.28
159.633854	-110.38
161.947780	-108.86
164.295247	-105.81
166.676741	-106.28
169.092755	-108.94
171.543790	-109.59
174.030353	-108.22
176.552959	-110.19
179.112131	-110.15
181.708398	-107.43
184.342299	-101.63
187.014379	-102.88
189.725192	-113.78
192.475298	-114.75
195.265267	-111.63
198.095678	-110.33
200.967116	-108.99
203.880176	-106.09
206.835462	-106.77
209.833585	-112.33
212.875166	-113.41
215.960836	-116.11
219.091233	-111.35
222.267006	-113.55
225.488813	-114.11
228.757320	-108.19
232.073205	-106.82
235.437154	-106.56
238.849865	-109.90
242.312043	-108.27
245.824407	-110.00
249.387683	-107.28
253.002609	-110.00
256.669935	-113.92
260.390419	-113.50
264.164832	-115.76
267.993956	-118.05
271.878584	-117.19
275.819521	-119.23
279.817582	-121.35
283.873596	-121.33
287.988403	-120.60
292.162855	-117.37
296.397817	-114.70
300.694165	-111.55
305.052789	-121.72
309.474593	-117.57
313.960491	-115.51
318.511414	-115.46
323.128303	-112.79
327.812115	-111.47
332.563820	-111.93
337.384402	-113.55
342.274859	-113.85
347.236204	-115.53
352.269465	-113.40
357.375684	-119.11
362.555919	-118.98
367.811243	-118.24
373.142743	-120.27
378.551525	-119.90
384.038708	-118.51
389.605429	-119.06
395.252841	-119.14
400.982113	-115.02
406.794432	-117.44
412.691002	-118.47
418.673044	-119.44
424.741797	-116.96
430.898518	-114.03
437.144481	-114.73
443.480981	-116.27
449.909331	-113.87
456.430860	-112.54
463.046920	-118.07
469.758882	-117.31
476.568134	-114.89
483.476089	-119.14
490.484175	-118.42
497.593845	-118.73
504.806572	-117.98
512.123848	-117.65
519.547190	-120.45
527.078134	-120.52
534.718242	-119.02
542.469094	-120.00
550.332296	-120.63
558.309477	-118.43
566.402289	-118.07
574.612408	-117.74
582.941535	-120.71
591.391394	-119.07
599.963735	-114.67
608.660334	-116.04
617.482992	-117.90
626.433537	-122.05
635.513821	-114.45
644.725726	-112.27
654.071160	-117.72
663.552057	-120.85
673.170382	-117.79
682.928127	-117.83
692.827312	-122.50
702.869989	-119.09
713.058235	-121.17
723.394163	-119.70
733.879912	-123.56
744.517654	-120.13
755.309592	-122.20
766.257962	-124.59
777.365030	-123.52
788.633098	-123.37
800.064499	-122.36
811.661600	-120.64
823.426804	-120.36
835.362547	-121.07
847.471301	-122.01
859.755574	-119.57
872.217910	-121.75
884.860890	-122.71
897.687132	-123.72
910.699294	-119.87
923.900070	-122.79
937.292194	-122.28
950.878439	-123.05
964.661620	-122.70
978.644591	-123.42
992.830248	-120.45
1007.221529	-118.60
1021.821414	-120.57
1036.632928	-119.20
1051.659138	-119.13
1066.903156	-120.96
1082.368140	-120.10
1098.057291	-122.22
1113.973860	-118.78
1130.121143	-119.41
1146.502484	-121.05
1163.121276	-120.10
1179.980961	-122.92
1197.085030	-120.73
1214.437027	-122.58
1232.040544	-120.49
1249.899229	-118.95
1268.016778	-120.57
1286.396945	-116.26
1305.043536	-121.26
1323.960414	-122.15
1343.151496	-120.50
1362.620756	-121.93
1382.372227	-121.54
1402.410000	-121.46
1422.738225	-119.13
1443.361112	-115.88
1464.282931	-120.56
1485.508017	-119.76
1507.040765	-118.06
1528.885634	-121.57
1551.047150	-117.57
1573.529901	-117.79
1596.338544	-118.63
1619.477804	-120.01
1642.952471	-119.29
1666.767409	-118.43
1690.927550	-121.03
1715.437896	-119.43
1740.303526	-120.15
1765.529587	-120.69
1791.121306	-118.92
1817.083982	-119.96
1843.422992	-119.69
1870.143792	-118.57
1897.251916	-117.21
1924.752977	-119.86
1952.652672	-119.01
1980.956779	-118.69
2009.671159	-119.51
2038.801761	-118.99
2068.354617	-119.39
2098.335847	-120.50
2128.751662	-119.59
2159.608360	-118.06
2190.912333	-119.75
2222.670063	-119.13
2254.888128	-118.79
2287.573200	-119.53
2320.732050	-117.74
2354.371544	-117.86
2388.498649	-117.48
2423.120434	-116.75
2458.244069	-117.16
2493.876828	-115.69
2530.026092	-116.13
2566.699346	-117.07
2603.904187	-114.52
2641.648320	-114.15
2679.939562	-113.64
2718.785844	-112.51
2758.195211	-112.41
2798.175824	-112.26
2838.735965	-111.43
2879.884033	-111.06
2921.628551	-110.92
2963.978165	-110.53
3006.941645	-111.14
3050.527890	-110.50
3094.745927	-110.77
3139.604913	-110.49
3185.114139	-111.75
3231.283032	-111.13
3278.121151	-114.10
3325.638200	-111.92
3373.844017	-111.90
3422.748588	-112.52
3472.362041	-113.55
3522.694651	-110.87
3573.756843	-111.56
3625.559192	-111.18
3678.112427	-111.61
3731.427432	-109.84
3785.515249	-111.17
3840.387080	-111.10
3896.054290	-111.74
3952.528408	-111.63
4009.821129	-111.84
4067.944321	-110.66
4126.910020	-110.20
4186.730440	-110.25
4247.417969	-109.11
4308.985176	-108.25
4371.444813	-108.73
4434.809815	-108.69
4499.093306	-109.29
4564.308599	-108.47
4630.469202	-108.18
4697.588817	-107.52
4765.681344	-106.37
4834.760887	-106.29
4904.841752	-108.14
4975.938453	-107.31
5048.065717	-106.79
5121.238480	-107.37
5195.471897	-106.72
5270.781343	-106.58
5347.182415	-106.98
5424.690937	-107.68
5503.322961	-106.56
5583.094772	-107.60
5664.022893	-107.68
5746.124083	-108.39
5829.415347	-108.14
5913.913936	-109.47
5999.637349	-109.29
6086.603340	-109.01
6174.829922	-109.92
6264.335367	-110.14
6355.138211	-109.58
6447.257262	-110.79
6540.711597	-110.42
6635.520573	-110.99
6731.703824	-111.41
6829.281272	-111.47
6928.273125	-111.74
7028.699885	-112.19
7130.582353	-114.29
7233.941627	-115.21
7338.799116	-115.18
7445.176537	-114.91
7553.095920	-114.57
7662.579617	-113.80
7773.650302	-113.90
7886.330981	-114.81
8000.644989	-114.80
8116.616003	-113.74
8234.268041	-114.13
8353.625470	-114.44
8474.713009	-114.95
8597.555737	-116.20
8722.179097	-116.74
8848.608897	-116.75
8976.871324	-115.78
9106.992942	-115.38
9239.000700	-115.87
9372.921937	-116.20
9508.784391	-116.53
9646.616199	-115.87
9786.445908	-115.00
9928.302478	-113.76
10072.215288	-113.81
10218.214144	-113.69
10366.329284	-114.28
10516.591384	-115.19
10669.031565	-115.65
10823.681397	-116.25
10980.572911	-117.95
11139.738600	-118.36
11301.211429	-120.31
11465.024840	-120.14
11631.212760	-119.09
11799.809609	-118.22
11970.850305	-118.44
12144.370271	-117.90
12320.405445	-117.06
12498.992285	-116.45
12680.167779	-116.43
12863.969449	-117.70
13050.435363	-117.64
13239.604139	-118.33
13431.514956	-118.07
13626.207560	-119.30
13823.722274	-119.04
14024.100004	-119.12
14227.382252	-118.42
14433.611118	-119.33
14642.829314	-120.72
14855.080172	-121.61
15070.407650	-121.56
15288.856344	-121.85
15510.471498	-121.55
15735.299010	-121.37
15963.385443	-121.24
16194.778036	-121.30
16429.524714	-121.49
16667.674093	-121.29
16909.275497	-122.04
17154.378963	-121.90
17403.035256	-121.68
17655.295873	-121.68
17911.213060	-121.59
18170.839820	-121.75
18434.229924	-121.99
18701.437922	-120.90
18972.519156	-121.77
19247.529769	-121.03
19526.526718	-121.93
19809.567786	-121.81
20096.711592	-121.65
20388.017608	-121.67
20683.546166	-121.54
20983.358471	-121.43
21287.516618	-121.97
21596.083601	-121.57
21909.123326	-121.45
22226.700627	-121.65